time (s),x,y,z
0.0,0.0,0.0,0.0
0.013333333333333332,0.0006852326227130629,0.0006852326227130629,0.0006852326227130629
0.026666666666666665,0.0027390523158633312,0.0027390523158633312,0.0027390523158633312
0.04,0.0061558297024311365,0.0061558297024311365,0.0061558297024311365
0.05333333333333333,0.010926199633097178,0.010926199633097178,0.010926199633097178
0.06666666666666667,0.01703708685546585,0.01703708685546585,0.01703708685546585
0.08,0.024471741852423214,0.024471741852423214,0.024471741852423214
0.09333333333333334,0.03320978675139913,0.03320978675139913,0.03320978675139913
0.10666666666666666,0.043227271178699546,0.043227271178699546,0.043227271178699546
0.12,0.05449673790581606,0.05449673790581606,0.05449673790581606
0.13333333333333333,0.06698729810778066,0.06698729810778066,0.06698729810778066
0.14666666666666667,0.08066471602728797,0.08066471602728797,0.08066471602728797
0.16,0.09549150281252627,0.09549150281252627,0.09549150281252627
0.17333333333333334,0.11142701927151458,0.11142701927151458,0.11142701927151458
0.18666666666666668,0.12842758726130288,0.12842758726130288,0.12842758726130288
0.2,0.14644660940672624,0.14644660940672624,0.14644660940672624
0.21333333333333332,0.16543469682057085,0.16543469682057085,0.16543469682057085
0.22666666666666668,0.18533980447508122,0.18533980447508122,0.18533980447508122
0.24,0.2061073738537634,0.2061073738537634,0.2061073738537634
0.2533333333333333,0.22768048249248646,0.22768048249248646,0.22768048249248646
0.26666666666666666,0.24999999999999994,0.24999999999999994,0.24999999999999994
0.28,0.2730047501302265,0.2730047501302265,0.2730047501302265
0.29333333333333333,0.29663167846209976,0.29663167846209976,0.29663167846209976
0.30666666666666664,0.32081602522734987,0.32081602522734987,0.32081602522734987
0.32,0.3454915028125263,0.3454915028125263,0.3454915028125263
0.3333333333333333,0.37059047744873963,0.37059047744873963,0.37059047744873963
0.3466666666666667,0.3960441545911204,0.3960441545911204,0.3960441545911204
0.36,0.4217827674798846,0.4217827674798846,0.4217827674798846
0.37333333333333335,0.4477357683661733,0.4477357683661733,0.4477357683661733
0.3866666666666667,0.47383202187852796,0.47383202187852796,0.47383202187852796
0.4,0.5000000000000001,0.5000000000000001,0.5000000000000001
0.41333333333333333,0.5261679781214719,0.5261679781214719,0.5261679781214719
0.42666666666666664,0.5522642316338265,0.5522642316338265,0.5522642316338265
0.43999999999999995,0.5782172325201156,0.5782172325201156,0.5782172325201156
0.45333333333333337,0.6039558454088795,0.6039558454088795,0.6039558454088795
0.4666666666666667,0.6294095225512604,0.6294095225512604,0.6294095225512604
0.48,0.6545084971874737,0.6545084971874737,0.6545084971874737
0.49333333333333335,0.6791839747726502,0.6791839747726502,0.6791839747726502
0.5066666666666666,0.7033683215379,0.7033683215379,0.7033683215379
0.52,0.7269952498697734,0.7269952498697734,0.7269952498697734
0.5333333333333333,0.7499999999999999,0.7499999999999999,0.7499999999999999
0.5466666666666666,0.7723195175075136,0.7723195175075136,0.7723195175075136
0.56,0.7938926261462365,0.7938926261462365,0.7938926261462365
0.5733333333333334,0.8146601955249185,0.8146601955249185,0.8146601955249185
0.5866666666666667,0.834565303179429,0.834565303179429,0.834565303179429
0.6,0.8535533905932737,0.8535533905932737,0.8535533905932737
0.6133333333333333,0.8715724127386971,0.8715724127386971,0.8715724127386971
0.6266666666666666,0.8885729807284855,0.8885729807284855,0.8885729807284855
0.64,0.9045084971874736,0.9045084971874736,0.9045084971874736
0.6533333333333333,0.919335283972712,0.919335283972712,0.919335283972712
0.6666666666666666,0.9330127018922194,0.9330127018922194,0.9330127018922194
0.68,0.9455032620941839,0.9455032620941839,0.9455032620941839
0.6933333333333334,0.9567727288213006,0.9567727288213006,0.9567727288213006
0.7066666666666667,0.9667902132486007,0.9667902132486007,0.9667902132486007
0.72,0.9755282581475768,0.9755282581475768,0.9755282581475768
0.7333333333333334,0.9829629131445341,0.9829629131445341,0.9829629131445341
0.7466666666666667,0.9890738003669027,0.9890738003669027,0.9890738003669027
0.76,0.9938441702975689,0.9938441702975689,0.9938441702975689
0.7733333333333334,0.9972609476841365,0.9972609476841365,0.9972609476841365
0.7866666666666666,0.9993147673772869,0.9993147673772869,0.9993147673772869
0.8,1.0,1.0,1.0
0.8133333333333332,0.9993147673772869,0.9993147673772869,0.9993147673772869
0.8266666666666667,0.9972609476841365,0.9972609476841365,0.9972609476841365
0.8400000000000001,0.9938441702975689,0.9938441702975689,0.9938441702975689
0.8533333333333333,0.989073800366903,0.989073800366903,0.989073800366903
0.8666666666666667,0.9829629131445343,0.9829629131445343,0.9829629131445343
0.8799999999999999,0.9755282581475766,0.9755282581475766,0.9755282581475766
0.8933333333333333,0.9667902132486009,0.9667902132486009,0.9667902132486009
0.9066666666666667,0.9567727288213006,0.9567727288213006,0.9567727288213006
0.9199999999999999,0.945503262094184,0.945503262094184,0.945503262094184
0.9333333333333333,0.9330127018922194,0.9330127018922194,0.9330127018922194
0.9466666666666667,0.919335283972712,0.919335283972712,0.919335283972712
0.96,0.9045084971874738,0.9045084971874738,0.9045084971874738
0.9733333333333333,0.8885729807284855,0.8885729807284855,0.8885729807284855
0.9866666666666667,0.8715724127386971,0.8715724127386971,0.8715724127386971
1.0,0.8535533905932737,0.8535533905932737,0.8535533905932737
1.0133333333333332,0.8345653031794292,0.8345653031794292,0.8345653031794292
1.0266666666666666,0.8146601955249185,0.8146601955249185,0.8146601955249185
1.04,0.7938926261462367,0.7938926261462367,0.7938926261462367
1.0533333333333332,0.7723195175075136,0.7723195175075136,0.7723195175075136
1.0666666666666667,0.7500000000000001,0.7500000000000001,0.7500000000000001
1.08,0.7269952498697735,0.7269952498697735,0.7269952498697735
1.0933333333333333,0.7033683215379002,0.7033683215379002,0.7033683215379002
1.1066666666666667,0.6791839747726504,0.6791839747726504,0.6791839747726504
1.12,0.6545084971874737,0.6545084971874737,0.6545084971874737
1.1333333333333333,0.6294095225512604,0.6294095225512604,0.6294095225512604
1.1466666666666667,0.6039558454088799,0.6039558454088799,0.6039558454088799
1.1600000000000001,0.5782172325201155,0.5782172325201155,0.5782172325201155
1.1733333333333333,0.5522642316338271,0.5522642316338271,0.5522642316338271
1.1866666666666668,0.5261679781214718,0.5261679781214718,0.5261679781214718
1.2,0.5000000000000001,0.5000000000000001,0.5000000000000001
1.2133333333333334,0.47383202187852846,0.47383202187852846,0.47383202187852846
1.2266666666666666,0.447735768366173,0.447735768366173,0.447735768366173
1.24,0.4217827674798847,0.4217827674798847,0.4217827674798847
1.2533333333333332,0.39604415459112025,0.39604415459112025,0.39604415459112025
1.2666666666666668,0.3705904774487399,0.3705904774487399,0.3705904774487399
1.28,0.34549150281252644,0.34549150281252644,0.34549150281252644
1.2933333333333332,0.32081602522734987,0.32081602522734987,0.32081602522734987
1.3066666666666666,0.29663167846210015,0.29663167846210015,0.29663167846210015
1.32,0.2730047501302266,0.2730047501302266,0.2730047501302266
1.3333333333333333,0.24999999999999994,0.24999999999999994,0.24999999999999994
1.3466666666666667,0.22768048249248665,0.22768048249248665,0.22768048249248665
1.36,0.2061073738537635,0.2061073738537635,0.2061073738537635
1.3733333333333333,0.1853398044750816,0.1853398044750816,0.1853398044750816
1.3866666666666667,0.16543469682057077,0.16543469682057077,0.16543469682057077
1.4000000000000001,0.14644660940672632,0.14644660940672632,0.14644660940672632
1.4133333333333333,0.12842758726130316,0.12842758726130316,0.12842758726130316
1.4266666666666667,0.11142701927151444,0.11142701927151444,0.11142701927151444
1.44,0.09549150281252634,0.09549150281252634,0.09549150281252634
1.4533333333333334,0.08066471602728797,0.08066471602728797,0.08066471602728797
1.4666666666666668,0.06698729810778081,0.06698729810778081,0.06698729810778081
1.48,0.05449673790581613,0.05449673790581613,0.05449673790581613
1.4933333333333334,0.043227271178699546,0.043227271178699546,0.043227271178699546
1.5066666666666668,0.03320978675139922,0.03320978675139922,0.03320978675139922
1.52,0.02447174185242325,0.02447174185242325,0.02447174185242325
1.5333333333333332,0.01703708685546585,0.01703708685546585,0.01703708685546585
1.5466666666666669,0.010926199633097235,0.010926199633097235,0.010926199633097235
1.56,0.0061558297024311565,0.0061558297024311565,0.0061558297024311565
1.5733333333333333,0.0027390523158633755,0.0027390523158633755,0.0027390523158633755
1.586666666666667,0.000685232622713054,0.000685232622713054,0.000685232622713054
1.6,0.0,0.0,0.0
1.6133333333333333,0.0008154480369321602,0.0008154480369321602,0.0008154480369321602
1.6266666666666665,0.003259132325724895,0.003259132325724895,0.003259132325724895
1.6400000000000001,0.007323082076153493,0.007323082076153493,0.007323082076153493
1.6533333333333333,0.01299404152883324,0.01299404152883324,0.01299404152883324
1.6666666666666665,0.020253513192751305,0.020253513192751305,0.020253513192751305
1.6800000000000002,0.02907781818023765,0.02907781818023765,0.02907781818023765
1.6933333333333334,0.039438173442574935,0.039438173442574935,0.039438173442574935
1.7066666666666666,0.05130078565432079,0.05130078565432079,0.05130078565432079
1.7199999999999998,0.06462696144011142,0.06462696144011142,0.06462696144011142
1.7333333333333334,0.0793732335844094,0.0793732335844094,0.0793732335844094
1.7466666666666666,0.09549150281252627,0.09549150281252627,0.09549150281252627
1.7599999999999998,0.11292919468045876,0.11292919468045876,0.11292919468045876
1.7733333333333334,0.13162943106179753,0.13162943106179753,0.13162943106179753
1.7866666666666666,0.15153121567235325,0.15153121567235325,0.15153121567235325
1.7999999999999998,0.17256963302735742,0.17256963302735742,0.17256963302735742
1.8133333333333335,0.19467606018228092,0.19467606018228092,0.19467606018228092
1.8266666666666667,0.21777839056661538,0.21777839056661538,0.21777839056661538
1.8399999999999999,0.24180126918051903,0.24180126918051903,0.24180126918051903
1.8533333333333333,0.2666663383871631,0.2666663383871631,0.2666663383871631
1.8666666666666667,0.2922924934990568,0.2922924934990568,0.2922924934990568
1.88,0.3185961473246795,0.3185961473246795,0.3185961473246795
1.8933333333333333,0.3454915028125263,0.3454915028125263,0.3454915028125263
1.9066666666666667,0.3728908329032565,0.3728908329032565,0.3728908329032565
1.92,0.4007047666771273,0.4007047666771273,0.4007047666771273
1.9333333333333333,0.42884258086335736,0.42884258086335736,0.42884258086335736
1.9466666666666665,0.45721249576058004,0.45721249576058004,0.45721249576058004
1.96,0.48572197460315186,0.48572197460315186,0.48572197460315186
1.9733333333333334,0.5142780253968481,0.5142780253968481,0.5142780253968481
1.9866666666666666,0.5427875042394198,0.5427875042394198,0.5427875042394198
2.0,0.5711574191366425,0.5711574191366425,0.5711574191366425
2.013333333333333,0.5992952333228726,0.5992952333228726,0.5992952333228726
2.0266666666666664,0.6271091670967435,0.6271091670967435,0.6271091670967435
2.04,0.6545084971874737,0.6545084971874737,0.6545084971874737
2.0533333333333332,0.6814038526753204,0.6814038526753204,0.6814038526753204
2.0666666666666664,0.707707506500943,0.707707506500943,0.707707506500943
2.08,0.7333336616128368,0.7333336616128368,0.7333336616128368
2.0933333333333333,0.7581987308194809,0.7581987308194809,0.7581987308194809
2.1066666666666665,0.7822216094333845,0.7822216094333845,0.7822216094333845
2.12,0.8053239398177191,0.8053239398177191,0.8053239398177191
2.1333333333333333,0.8274303669726425,0.8274303669726425,0.8274303669726425
2.1466666666666665,0.8484687843276467,0.8484687843276467,0.8484687843276467
2.16,0.8683705689382026,0.8683705689382026,0.8683705689382026
2.1733333333333333,0.8870708053195413,0.8870708053195413,0.8870708053195413
2.1866666666666665,0.9045084971874736,0.9045084971874736,0.9045084971874736
2.2,0.9206267664155905,0.9206267664155905,0.9206267664155905
2.2133333333333334,0.9353730385598884,0.9353730385598884,0.9353730385598884
2.2266666666666666,0.948699214345679,0.948699214345679,0.948699214345679
2.24,0.9605618265574252,0.9605618265574252,0.9605618265574252
2.2533333333333334,0.9709221818197623,0.9709221818197623,0.9709221818197623
2.2666666666666666,0.9797464868072486,0.9797464868072486,0.9797464868072486
2.2800000000000002,0.9870059584711668,0.9870059584711668,0.9870059584711668
2.2933333333333334,0.9926769179238464,0.9926769179238464,0.9926769179238464
2.3066666666666666,0.996740867674275,0.996740867674275,0.996740867674275
2.3200000000000003,0.9991845519630679,0.9991845519630679,0.9991845519630679
2.3333333333333335,1.0,1.0,1.0
2.3466666666666667,0.9991845519630679,0.9991845519630679,0.9991845519630679
2.36,0.996740867674275,0.996740867674275,0.996740867674275
2.3733333333333335,0.9926769179238466,0.9926769179238466,0.9926769179238466
2.3866666666666667,0.9870059584711668,0.9870059584711668,0.9870059584711668
2.4,0.9797464868072489,0.9797464868072489,0.9797464868072489
2.4133333333333336,0.9709221818197623,0.9709221818197623,0.9709221818197623
2.4266666666666667,0.9605618265574252,0.9605618265574252,0.9605618265574252
2.44,0.948699214345679,0.948699214345679,0.948699214345679
2.453333333333333,0.9353730385598886,0.9353730385598886,0.9353730385598886
2.466666666666667,0.9206267664155905,0.9206267664155905,0.9206267664155905
2.48,0.9045084971874738,0.9045084971874738,0.9045084971874738
2.493333333333333,0.8870708053195411,0.8870708053195411,0.8870708053195411
2.5066666666666664,0.8683705689382026,0.8683705689382026,0.8683705689382026
2.52,0.8484687843276467,0.8484687843276467,0.8484687843276467
2.5333333333333337,0.8274303669726426,0.8274303669726426,0.8274303669726426
2.5466666666666664,0.8053239398177188,0.8053239398177188,0.8053239398177188
2.56,0.7822216094333845,0.7822216094333845,0.7822216094333845
2.5733333333333337,0.7581987308194809,0.7581987308194809,0.7581987308194809
2.5866666666666664,0.733333661612837,0.733333661612837,0.733333661612837
2.6,0.7077075065009436,0.7077075065009436,0.7077075065009436
2.6133333333333333,0.6814038526753208,0.6814038526753208,0.6814038526753208
2.6266666666666665,0.6545084971874737,0.6545084971874737,0.6545084971874737
2.64,0.6271091670967435,0.6271091670967435,0.6271091670967435
2.6533333333333333,0.5992952333228729,0.5992952333228729,0.5992952333228729
2.6666666666666665,0.5711574191366425,0.5711574191366425,0.5711574191366425
2.68,0.5427875042394202,0.5427875042394202,0.5427875042394202
2.6933333333333334,0.5142780253968482,0.5142780253968482,0.5142780253968482
2.7066666666666666,0.48572197460315186,0.48572197460315186,0.48572197460315186
2.72,0.45721249576057993,0.45721249576057993,0.45721249576057993
2.7333333333333334,0.42884258086335764,0.42884258086335764,0.42884258086335764
2.7466666666666666,0.4007047666771273,0.4007047666771273,0.4007047666771273
2.7600000000000002,0.37289083290325675,0.37289083290325675,0.37289083290325675
2.7733333333333334,0.34549150281252644,0.34549150281252644,0.34549150281252644
2.7866666666666666,0.3185961473246795,0.3185961473246795,0.3185961473246795
2.8000000000000003,0.2922924934990566,0.2922924934990566,0.2922924934990566
2.8133333333333335,0.2666663383871632,0.2666663383871632,0.2666663383871632
2.8266666666666667,0.24180126918051933,0.24180126918051933,0.24180126918051933
2.84,0.21777839056661555,0.21777839056661555,0.21777839056661555
2.8533333333333335,0.1946760601822813,0.1946760601822813,0.1946760601822813
2.8666666666666667,0.1725696330273574,0.1725696330273574,0.1725696330273574
2.88,0.15153121567235336,0.15153121567235336,0.15153121567235336
2.8933333333333335,0.13162943106179753,0.13162943106179753,0.13162943106179753
2.9066666666666667,0.11292919468045894,0.11292919468045894,0.11292919468045894
2.92,0.09549150281252634,0.09549150281252634,0.09549150281252634
2.9333333333333336,0.07937323358440962,0.07937323358440962,0.07937323358440962
2.9466666666666668,0.06462696144011153,0.06462696144011153,0.06462696144011153
2.96,0.05130078565432083,0.05130078565432083,0.05130078565432083
2.9733333333333336,0.0394381734425749,0.0394381734425749,0.0394381734425749
2.986666666666667,0.029077818180237715,0.029077818180237715,0.029077818180237715
3.0,0.020253513192751312,0.020253513192751312,0.020253513192751312
3.0133333333333336,0.012994041528833317,0.012994041528833317,0.012994041528833317
3.0266666666666664,0.007323082076153522,0.007323082076153522,0.007323082076153522
3.04,0.003259132325724896,0.003259132325724896,0.003259132325724896
3.0533333333333337,0.0008154480369321511,0.0008154480369321511,0.0008154480369321511
3.0666666666666664,0.0,0.0,0.0
3.08,0.000986635785864219,0.000986635785864219,0.000986635785864219
3.0933333333333337,0.003942649342761085,0.003942649342761085,0.003942649342761085
3.1066666666666665,0.008856374635655659,0.008856374635655659,0.008856374635655659
3.12,0.015708419435684445,0.015708419435684445,0.015708419435684445
3.1333333333333337,0.024471741852423214,0.024471741852423214,0.024471741852423214
3.1466666666666665,0.035111757055874285,0.035111757055874285,0.035111757055874285
3.16,0.04758647376699024,0.04758647376699024,0.04758647376699024
3.173333333333334,0.06184665997806821,0.06184665997806821,0.06184665997806821
3.1866666666666665,0.07783603724899248,0.07783603724899248,0.07783603724899248
3.2,0.09549150281252627,0.09549150281252627,0.09549150281252627
3.213333333333334,0.11474337861210537,0.11474337861210537,0.11474337861210537
3.2266666666666666,0.1355156862892942,0.1355156862892942,0.1355156862892942
3.24,0.15772644703565566,0.15772644703565566,0.15772644703565566
3.253333333333333,0.1812880051256552,0.1812880051256552,0.1812880051256552
3.2666666666666666,0.2061073738537634,0.2061073738537634,0.2061073738537634
3.2800000000000002,0.23208660251050173,0.23208660251050173,0.23208660251050173
3.293333333333333,0.2591231629491424,0.2591231629491424,0.2591231629491424
3.3066666666666666,0.2871103542174637,0.2871103542174637,0.2871103542174637
3.3200000000000003,0.315937723657661,0.315937723657661,0.315937723657661
3.333333333333333,0.3454915028125263,0.3454915028125263,0.3454915028125263
3.3466666666666667,0.37565505641757246,0.37565505641757246,0.37565505641757246
3.3600000000000003,0.4063093427071376,0.4063093427071376,0.4063093427071376
3.373333333333333,0.4373333832178478,0.4373333832178478,0.4373333832178478
3.3866666666666667,0.4686047402353432,0.4686047402353432,0.4686047402353432
3.4000000000000004,0.5000000000000001,0.5000000000000001,0.5000000000000001
3.413333333333333,0.5313952597646567,0.5313952597646567,0.5313952597646567
3.4266666666666667,0.5626666167821522,0.5626666167821522,0.5626666167821522
3.4399999999999995,0.5936906572928623,0.5936906572928623,0.5936906572928623
3.453333333333333,0.6243449435824273,0.6243449435824273,0.6243449435824273
3.466666666666667,0.6545084971874737,0.6545084971874737,0.6545084971874737
3.4799999999999995,0.684062276342339,0.684062276342339,0.684062276342339
3.493333333333333,0.7128896457825363,0.7128896457825363,0.7128896457825363
3.506666666666667,0.7408768370508576,0.7408768370508576,0.7408768370508576
3.5199999999999996,0.7679133974894985,0.7679133974894985,0.7679133974894985
3.533333333333333,0.7938926261462365,0.7938926261462365,0.7938926261462365
3.546666666666667,0.818711994874345,0.818711994874345,0.818711994874345
3.5599999999999996,0.8422735529643444,0.8422735529643444,0.8422735529643444
3.5733333333333333,0.8644843137107057,0.8644843137107057,0.8644843137107057
3.586666666666667,0.8852566213878946,0.8852566213878946,0.8852566213878946
3.5999999999999996,0.9045084971874736,0.9045084971874736,0.9045084971874736
3.6133333333333333,0.9221639627510073,0.9221639627510073,0.9221639627510073
3.626666666666667,0.9381533400219317,0.9381533400219317,0.9381533400219317
